# BornAgain Intensity Data
# Simple array suitable for numpy, matlab etc.
# coordinates         intensities
1.829737560245e-03    7.784900267130e+06
5.489212675719e-03    1.104973296902e+07
9.148687776144e-03    1.488823486109e+07
1.280816285149e-02    1.920839041581e+07
1.646763789172e-02    2.390051534809e+07
2.012711288680e-02    2.886086740177e+07
2.378658782670e-02    3.398907518084e+07
2.744606270139e-02    3.920193559041e+07
3.110553750084e-02    4.442056082238e+07
3.476501221500e-02    4.963668384501e+07
3.842448683386e-02    5.485016960142e+07
4.208396134737e-02    6.006085617660e+07
4.574343574551e-02    6.526523347721e+07
4.940291001824e-02    7.038665048522e+07
5.306238415553e-02    7.533919287766e+07
5.672185814735e-02    8.003626767757e+07
6.038133198366e-02    8.437144514413e+07
6.404080565443e-02    8.823463431129e+07
6.770027914963e-02    9.151466888888e+07
7.135975245922e-02    9.414005996298e+07
7.501922557318e-02    9.613042709646e+07
7.867869848147e-02    9.730809043136e+07
8.233817117406e-02    9.720534468688e+07
8.599764364091e-02    9.589521718454e+07
8.965711587200e-02    9.331964604701e+07
9.331658785728e-02    8.877068183547e+07
9.697605958673e-02    8.256311630452e+07
1.006355310503e-01    7.499946291732e+07
1.042950022380e-01    6.663135183754e+07
1.079544731398e-01    5.785622347613e+07
1.116139437456e-01    4.851347772455e+07
1.152734140454e-01    3.988013865957e+07
1.189328840291e-01    3.230477394683e+07
1.225923536868e-01    2.592252287221e+07
1.262518230085e-01    2.062820875558e+07
1.299112919839e-01    1.642810839611e+07
1.335707606033e-01    1.330200438959e+07
1.372302288564e-01    1.078391887863e+07
1.408896967333e-01    8.721483754129e+06
1.445491642240e-01    7.020983085229e+06
1.482086313183e-01    5.616077306242e+06
1.518680980064e-01    4.456392571176e+06
1.555275642781e-01    3.502039325525e+06
1.591870301234e-01    2.720558171705e+06
1.591870301234e-01    2.720558171705e+06
1.628464955323e-01    2.085043081305e+06
1.665059604947e-01    1.572902315428e+06
1.701654250006e-01    1.164993541902e+06
1.738248890401e-01    8.449926704606e+05
1.774843526029e-01    5.989163488661e+05
1.811438156792e-01    4.147499796865e+05
1.848032782589e-01    2.821509805177e+05
1.884627403319e-01    1.922074850727e+05
1.921222018883e-01    1.372390709116e+05
1.957816629179e-01    1.106301363091e+05
1.994411234108e-01    1.066891739398e+05
2.031005833569e-01    1.205289502465e+05
2.067600427462e-01    1.479638093629e+05
2.104195015686e-01    1.854211746577e+05
2.140789598142e-01    2.298649382934e+05
2.177384174728e-01    2.787288851663e+05
2.213978745346e-01    3.298586425477e+05
2.250573309893e-01    3.814609120696e+05
2.287167868270e-01    4.320589493889e+05
2.323762420377e-01    4.804534230813e+05
2.360356966114e-01    5.256879192603e+05
2.396951505379e-01    5.670184687800e+05
2.433546038073e-01    6.038865658402e+05
2.470140564095e-01    6.358952234798e+05
2.506735083345e-01    6.627876765143e+05
2.543329595723e-01    6.844283975394e+05
2.579924101128e-01    7.007861388050e+05
2.616518599460e-01    7.119187532816e+05
2.653113090618e-01    7.179595830320e+05
2.689707574503e-01    7.191052331448e+05
2.726302051014e-01    7.156045753827e+05
2.762896520051e-01    7.077488482257e+05
2.799490981513e-01    6.958627392864e+05
2.836085435300e-01    6.802963528113e+05
2.872679881312e-01    6.614179792604e+05
2.909274319448e-01    6.396075962297e+05
2.945868749609e-01    6.152510403437e+05
2.982463171693e-01    5.887347985174e+05
3.019057585600e-01    5.604413742815e+05
3.055651991231e-01    5.307451908869e+05
3.092246388484e-01    5.000089978044e+05
3.128840777260e-01    4.685807510617e+05
3.165435157457e-01    4.367909409382e+05
3.202029528977e-01    4.049503427337e+05
3.238623891718e-01    3.733481679715e+05
3.275218245580e-01    3.422505944571e+05
3.311812590463e-01    3.118996542015e+05
3.348406926267e-01    2.825124585364e+05
3.385001252890e-01    2.542807397085e+05
3.421595570234e-01    2.273706880658e+05
3.458189878197e-01    2.019230636132e+05
3.494784176679e-01    1.780535603488e+05
3.531378465580e-01    1.558534013838e+05
3.567972744799e-01    1.353901425766e+05
3.604567014237e-01    1.167086620412e+05
3.641161273792e-01    9.983231288392e+04
3.677755523366e-01    8.476421639563e+04
3.714349762856e-01    7.148867318156e+04
3.750943992163e-01    5.997266998487e+04
3.787538211187e-01    5.016746045428e+04
3.824132419827e-01    4.201019881504e+04
3.860726617983e-01    3.542560617465e+04
3.897320805555e-01    3.032765022572e+04
3.933914982441e-01    2.662122019724e+04
3.970509148543e-01    2.420378016053e+04
4.007103303760e-01    2.296698511844e+04
4.043697447990e-01    2.279824574458e+04
4.080291581135e-01    2.358222909759e+04
4.116885703093e-01    2.520228416481e+04
4.153479813765e-01    2.754178261028e+04
4.190073913050e-01    3.048536664004e+04
4.226668000847e-01    3.392009740058e+04
4.263262077057e-01    3.773649880479e+04
4.299856141578e-01    4.182949309683e+04
4.336450194312e-01    4.609922583052e+04
4.373044235157e-01    5.045177922471e+04
4.409638264012e-01    5.479977405035e+04
4.446232280779e-01    5.906286133802e+04
4.482826285356e-01    6.316810620368e+04
4.519420277643e-01    6.705026702231e+04
4.556014257540e-01    7.065197401522e+04
4.592608224946e-01    7.392381203059e+04
4.629202179761e-01    7.682431295543e+04
4.665796121886e-01    7.931986371761e+04
4.702390051218e-01    8.138453629198e+04
4.738983967659e-01    8.299984648231e+04
4.775577871107e-01    8.415444851594e+04
4.812171761463e-01    8.484377268398e+04
4.848765638626e-01    8.506961336579e+04
4.885359502496e-01    8.483967481545e+04
4.921953352973e-01    8.416708205570e+04
4.958547189956e-01    8.306986412737e+04
4.995141013344e-01    8.157041678615e+04
5.031734823038e-01    7.969495152560e+04
5.068328618937e-01    7.747293754151e+04
5.104922400942e-01    7.493654294513e+04
5.141516168950e-01    7.212008117691e+04
5.178109922863e-01    6.905946819217e+04
5.214703662580e-01    6.579169556085e+04
5.251297388001e-01    6.235432418553e+04
5.287891099025e-01    5.878500286498e+04
5.324484795551e-01    5.512101544714e+04
5.361078477481e-01    5.139885981858e+04
5.397672144712e-01    4.765386146175e+04
5.434265797146e-01    4.391982381374e+04
5.470859434681e-01    4.022871713996e+04
5.507453057218e-01    3.661040714497e+04
5.544046664655e-01    3.309242404959e+04
5.580640256894e-01    2.969977238440e+04
5.617233833832e-01    2.645478130797e+04
5.653827395371e-01    2.337699481345e+04
5.690420941409e-01    2.048310079460e+04
5.727014471847e-01    1.778689756576e+04
5.763607986584e-01    1.529929608736e+04
5.800201485519e-01    1.302835585225e+04
5.836794968553e-01    1.097935211211e+04
5.873388435585e-01    9.154871901368e+03
5.909981886515e-01    7.554936123861e+03
5.946575321243e-01    6.177144819589e+03
5.983168739667e-01    5.016842619704e+03
6.019762141688e-01    4.067301327250e+03
6.056355527206e-01    3.319916530751e+03
6.092948896120e-01    2.764415161364e+03
6.129542248330e-01    2.389070946267e+03
6.166135583735e-01    2.180924782613e+03
6.202728902235e-01    2.126007160617e+03
6.239322203730e-01    2.209559896232e+03
6.275915488120e-01    2.416254589168e+03
6.312508755304e-01    2.730405400833e+03
6.349102005182e-01    3.136173943355e+03
6.385695237654e-01    3.617764282800e+03
6.422288452618e-01    4.159606284275e+03
6.458881649976e-01    4.746525759801e+03
6.495474829627e-01    5.363900118825e+03
6.532067991469e-01    5.997798462772e+03
6.568661135404e-01    6.635105307004e+03
6.605254261330e-01    7.263627351063e+03
6.641847369147e-01    7.872182951817e+03
6.678440458756e-01    8.450674178067e+03
6.715033530055e-01    8.990141539809e+03
6.751626582945e-01    9.482801688006e+03
6.788219617324e-01    9.922068568348e+03
6.824812633094e-01    1.030255868617e+04
6.861405630152e-01    1.062008129553e+04
6.897998608400e-01    1.087161446453e+04
6.934591567736e-01    1.105526808936e+04
6.971184508061e-01    1.117023503119e+04
7.007777429274e-01    1.121673163273e+04
7.044370331275e-01    1.119592893466e+04
7.080963213963e-01    1.110987595677e+04
7.117556077239e-01    1.096141643490e+04
7.154148921001e-01    1.075410041253e+04
7.190741745150e-01    1.049209207693e+04
7.227334549585e-01    1.018007520427e+04
7.263927334205e-01    9.823157537453e+03
7.300520098912e-01    9.426775365401e+03
7.337112843603e-01    8.996599505100e+03
7.373705568180e-01    8.538443808543e+03
7.410298272540e-01    8.058177227666e+03
7.446890956586e-01    7.561640372965e+03
7.483483620215e-01    7.054567396899e+03
7.520076263327e-01    6.542513923620e+03
7.556668885823e-01    6.030791632716e+03
7.593261487602e-01    5.524409989146e+03
7.629854068564e-01    5.028025494703e+03
7.666446628608e-01    4.545898720860e+03
7.703039167634e-01    4.081859268936e+03
7.739631685541e-01    3.639278693266e+03
7.776224182230e-01    3.221051317763e+03
7.812816657600e-01    2.829582776276e+03
7.849409111551e-01    2.466786014252e+03
7.886001543982e-01    2.134084403959e+03
7.922593954793e-01    1.832421548529e+03
7.959186343884e-01    1.562277282366e+03
7.995778711155e-01    1.323689317148e+03
8.032371056504e-01    1.116279934082e+03
8.068963379833e-01    9.392870846943e+02
8.105555681039e-01    7.915992342749e+02
8.142147960024e-01    6.717932635902e+02
8.178740216687e-01    5.781747363810e+02
8.215332450927e-01    5.088198411401e+02
8.251924662645e-01    4.616183260223e+02
8.288516851739e-01    4.343167647486e+02
8.325109018110e-01    4.245615181208e+02
8.361701161657e-01    4.299407901692e+02
8.398293282281e-01    4.480252186694e+02
8.434885379879e-01    4.764064863322e+02
8.471477454353e-01    5.127334904777e+02
8.508069505602e-01    5.547456644346e+02
8.544661533526e-01    6.003031025771e+02
8.581253538024e-01    6.474132017087e+02
8.617845518996e-01    6.942535936974e+02
8.654437476341e-01    7.391912069024e+02
8.691029409960e-01    7.807973561159e+02
8.727621319752e-01    8.178588218373e+02
8.764213205617e-01    8.493849386791e+02
8.800805067454e-01    8.746107691159e+02
8.837396905164e-01    8.929964918166e+02
8.873988718645e-01    9.042231829242e+02
8.910580507797e-01    9.081852133618e+02
8.947172272521e-01    9.049795251045e+02
8.983764012715e-01    8.948920839982e+02
9.020355728280e-01    8.783818358899e+02
9.056947419115e-01    8.560625163387e+02
9.093539085120e-01    8.286826818727e+02
9.130130726195e-01    7.971043427073e+02
9.166722342239e-01    7.622805829380e+02
9.203313933151e-01    7.252325547423e+02
9.239905498833e-01    6.870262281307e+02
9.276497039182e-01    6.487492676582e+02
9.313088554100e-01    6.114883924097e+02
9.349680043485e-01    5.763075560393e+02
9.386271507237e-01    5.442272599529e+02
9.422862945257e-01    5.162052854067e+02
9.459454357443e-01    4.931190998842e+02
9.496045743696e-01    4.757501599682e+02
9.532637103914e-01    4.647702977992e+02
9.569228437999e-01    4.607303414746e+02
9.605819745848e-01    4.640510820495e+02
9.642411027363e-01    4.750166616452e+02
9.679002282443e-01    4.937704191506e+02
9.715593510987e-01    5.203131925556e+02
9.752184712895e-01    5.545040406699e+02
9.788775888067e-01    5.960633122632e+02
9.825367036403e-01    6.445779579362e+02
9.861958157802e-01    6.995089497811e+02
9.898549252163e-01    7.602006463368e+02
9.935140319387e-01    8.258919158657e+02
9.971731359374e-01    8.957288098517e+02
1.000832237202e+00    9.687785609455e+02
1.004491335723e+00    1.044044665623e+03
1.008150431490e+00    1.120482801569e+03
1.011809524494e+00    1.197017323384e+03
1.015468614723e+00    1.272558077532e+03
1.019127702168e+00    1.346017278509e+03
1.022786786820e+00    1.416326192917e+03
1.026445868667e+00    1.482451386193e+03
1.030104947700e+00    1.543410298145e+03
1.033764023909e+00    1.598285927830e+03
1.037423097284e+00    1.646240425425e+03
1.041082167815e+00    1.686527408319e+03
1.044741235492e+00    1.718502840344e+03
1.048400300304e+00    1.741634336483e+03
1.052059362243e+00    1.755508780295e+03
1.055718421297e+00    1.759838167169e+03
1.059377477456e+00    1.754463613068e+03
1.063036530711e+00    1.739357495278e+03
1.066695581052e+00    1.714623718430e+03
1.070354628469e+00    1.680496125360e+03
1.074013672951e+00    1.637335097913e+03
1.077672714489e+00    1.585622417159e+03
1.081331753072e+00    1.525954475520e+03
1.084990788690e+00    1.459033954511e+03
1.088649821334e+00    1.385660101185e+03
1.092308850994e+00    1.306717753483e+03
1.095967877658e+00    1.223165279494e+03
1.099626901319e+00    1.136021607913e+03
1.103285921964e+00    1.046352536660e+03
1.106944939585e+00    9.552565135985e+02
1.110603954171e+00    8.638500875002e+02
1.114262965712e+00    7.732532289386e+02
1.117921974198e+00    6.845747195346e+02
1.121580979620e+00    5.988978042034e+02
1.125239981966e+00    5.172662945920e+02
1.128898981228e+00    4.406713031805e+02
1.132557977395e+00    3.700387764670e+02
1.136216970457e+00    3.062179825948e+02
1.139875960404e+00    2.499710938770e+02
1.143534947225e+00    2.019639881454e+02
1.147193930912e+00    1.627583749743e+02
1.150852911454e+00    1.328053338623e+02
1.154511888840e+00    1.124403316302e+02
1.158170863061e+00    1.018797659572e+02
1.161829834108e+00    1.012190613227e+02
1.165488801969e+00    1.104323229848e+02
1.169147766634e+00    1.293735342850e+02
1.172806728095e+00    1.577792626920e+02
1.176465686340e+00    1.952728210044e+02
1.180124641359e+00    2.413698120270e+02
1.183783593144e+00    2.954849682937e+02
1.187442541683e+00    3.569401829935e+02
1.191101486966e+00    4.249736144910e+02
1.194760428984e+00    4.987497348496e+02
1.198419367727e+00    5.773701825334e+02
1.202078303184e+00    6.598852714137e+02
1.205737235345e+00    7.453060019437e+02
1.209396164201e+00    8.326164164516e+02
1.213055089741e+00    9.207861384372e+02
1.216714011955e+00    1.008782935992e+03
1.220372930834e+00    1.095585151579e+03
1.224031846367e+00    1.180193844618e+03
1.227690758545e+00    1.261644499345e+03
1.231349667356e+00    1.339018158246e+03
1.235008572792e+00    1.411451850888e+03
1.238667474842e+00    1.478148198840e+03
1.242326373496e+00    1.538384089777e+03
1.245985268744e+00    1.591518327210e+03
1.249644160576e+00    1.636998176713e+03
1.253303048983e+00    1.674364744653e+03
1.256961933953e+00    1.703257141089e+03
1.260620815477e+00    1.723415394529e+03
1.264279693545e+00    1.734682102386e+03
1.267938568147e+00    1.737002817004e+03
1.271597439273e+00    1.730425182925e+03
1.275256306913e+00    1.715096856331e+03
1.278915171056e+00    1.691262252257e+03
1.282574031694e+00    1.659258178929e+03
1.286232888815e+00    1.619508431419e+03
1.289891742410e+00    1.572517428429e+03
1.293550592468e+00    1.518862986444e+03
1.297209438980e+00    1.459188334501e+03
1.300868281936e+00    1.394193480403e+03
1.304527121325e+00    1.324626045215e+03
1.308185957138e+00    1.251271687394e+03
1.311844789365e+00    1.174944240715e+03
1.315503617995e+00    1.096475691450e+03
1.319162443018e+00    1.016706119899e+03
1.322821264425e+00    9.364737295009e+02
1.326480082205e+00    8.566050833357e+02
1.330138896349e+00    7.779056630150e+02
1.333797706846e+00    7.011508587885e+02
1.337456513686e+00    6.270774922797e+02
1.341115316860e+00    5.563759647270e+02
1.344774116357e+00    4.896831140920e+02
1.348432912167e+00    4.275758540025e+02
1.352091704280e+00    3.705656564397e+02
1.355750492687e+00    3.190939284000e+02
1.359409277376e+00    2.735283207751e+02
1.363068058339e+00    2.341599953814e+02
1.366726835565e+00    2.012018637544e+02
1.370385609044e+00    1.747877990567e+02
1.374044378766e+00    1.549728103917e+02
1.377703144720e+00    1.417341571989e+02
1.381361906898e+00    1.349733702430e+02
1.385020665289e+00    1.345191352455e+02
1.388679419882e+00    1.401309854849e+02
1.392338170669e+00    1.515037408462e+02
1.395996917638e+00    1.682726229311e+02
1.399655660780e+00    1.900189690072e+02
1.403314400085e+00    2.162764618561e+02
1.406973135542e+00    2.465377880289e+02
1.410631867143e+00    2.802616336364e+02
1.414290594876e+00    3.168799246508e+02
1.417949318731e+00    3.558052177511e+02
1.421608038699e+00    3.964381479809e+02
1.425266754770e+00    4.381748409107e+02
1.428925466933e+00    4.804141995340e+02
1.432584175179e+00    5.225649797249e+02
1.436242879497e+00    5.640525727053e+02
1.439901579878e+00    6.043254184750e+02
1.443560276311e+00    6.428609805172e+02
1.447218968787e+00    6.791712191784e+02
1.450877657295e+00    7.128075088132e+02
1.454536341825e+00    7.433649520123e+02
1.458195022368e+00    7.704860528352e+02
1.461853698913e+00    7.938637198836e+02
1.465512371450e+00    8.132435790718e+02
1.469171039969e+00    8.284255850785e+02
1.472829704461e+00    8.392649294608e+02
1.476488364914e+00    8.456722522558e+02
1.480147021320e+00    8.476131724349e+02
1.483805673668e+00    8.451071607059e+02
1.487464321948e+00    8.382257858208e+02
1.491122966150e+00    8.270903726102e+02
1.494781606264e+00    8.118691163910e+02
1.498440242280e+00    7.927737040834e+02
1.502098874188e+00    7.700554973074e+02
1.505757501978e+00    7.440013368155e+02
1.509416125639e+00    7.149290308712e+02
1.513074745163e+00    6.831825925577e+02
1.516733360538e+00    6.491272924653e+02
1.520391971755e+00    6.131445938353e+02
1.524050578804e+00    5.756270369373e+02
1.527709181675e+00    5.369731383619e+02
1.531367780357e+00    4.975823689599e+02
1.535026374841e+00    4.578502714831e+02
1.538684965117e+00    4.181637755490e+02
1.542343551174e+00    3.788967634907e+02
1.546002133003e+00    3.404059360053e+02
1.549660710593e+00    3.030270213344e+02
1.553319283935e+00    2.670713661269e+02
1.556977853019e+00    2.328229401836e+02
1.560636417834e+00    2.005357810613e+02
1.564294978370e+00    1.704318981398e+02
1.567953534617e+00    1.426996492731e+02
1.571612086566e+00    1.174925966579e+02
1.575270634207e+00    9.492884217411e+01
1.578929177529e+00    7.509083619859e+01
1.582587716521e+00    5.802564790437e+01
1.586246251176e+00    4.374567939168e+01
1.589904781481e+00    3.222980067992e+01
1.593563307428e+00    2.342487774262e+01
1.597221829005e+00    1.724766140596e+01
1.600880346204e+00    1.358700109557e+01
1.604538859014e+00    1.230634418404e+01
1.608197367425e+00    1.324647903457e+01
1.611855871427e+00    1.622847783049e+01
1.615514371010e+00    2.105679389327e+01
1.619172866164e+00    2.752246745175e+01
1.622831356879e+00    3.540639372000e+01
1.626489843145e+00    4.448260764540e+01
1.630148324952e+00    5.452154080609e+01
1.633806802290e+00    6.529320759932e+01
1.637465275148e+00    7.657028007887e+01
1.641123743518e+00    8.813101348740e+01
1.644782207388e+00    9.976198766075e+01
1.648440666748e+00    1.112606330119e+02
1.652099121590e+00    1.224375136360e+02
1.655757571902e+00    1.331183442138e+02
1.659416017675e+00    1.431457217088e+02
1.663074458898e+00    1.523805573237e+02
1.666732895562e+00    1.607031987419e+02
1.670391327657e+00    1.680142372341e+02
1.674049755172e+00    1.742349987397e+02
1.677708178098e+00    1.793077224426e+02
1.681366596424e+00    1.831954346077e+02
1.685025010140e+00    1.858815294781e+02
1.688683419237e+00    1.873690727906e+02
1.692341823704e+00    1.876798469167e+02
1.696000223532e+00    1.868531597296e+02
1.699658618710e+00    1.849444420020e+02
1.703317009228e+00    1.820236604330e+02
1.706975395077e+00    1.781735752509e+02
1.710633776245e+00    1.734878727396e+02
1.714292152724e+00    1.680692039750e+02
1.717950524503e+00    1.620271615279e+02
1.721608891573e+00    1.554762259059e+02
1.725267253922e+00    1.485337130677e+02
1.728925611541e+00    1.413177534762e+02
1.732583964421e+00    1.339453318725e+02
1.736242312550e+00    1.265304152896e+02
1.739900655920e+00    1.191821948051e+02
1.743558994519e+00    1.120034642008e+02
1.747217328339e+00    1.050891560825e+02
1.750875657368e+00    9.852505317402e+01
1.754533981597e+00    9.238668946212e+01
1.758192301016e+00    8.673845269774e+01
1.761850615615e+00    8.163289648912e+01
1.765508925384e+00    7.711026690812e+01
1.769167230312e+00    7.319824521978e+01
